0 Minifig Head with Fabuland Red Hair over Eye and Black Eyebrows Pattern
0 Name: 3626bp7a.dat
0 Author: Magnus Forsberg [MagFors]
0 !LDRAW_ORG Part UPDATE 2026-06
0 !LICENSE Licensed under CC BY 4.0 : see CAreadme.txt

0 BFC CERTIFY CCW

0 !KEYWORDS aquaraiders, Aquasharks, Aquazone, arched eyebrow, bangs
0 !KEYWORDS black eyebrows, BrickLink 3626p7a, Brickowl 407462, Cameraman
0 !KEYWORDS Drome Racers, face, football, Hoth, Rebel Alliance
0 !KEYWORDS Rebrickable 3626bpr0031, Rocky the Reef Wrecker, Set 2161, Set 2162
0 !KEYWORDS Set 4500, set 4594, Set 6155, Set 6190, set 7130, sharp, sloppy hair
0 !KEYWORDS Snowspeeder, spiky, Star Wars

0 !CMDLINE -c14

0 !HISTORY 2002-08-18 [PTadmin] Official Update 2002-04
0 !HISTORY 2007-06-29 [PTadmin] Header formatted for Contributor Agreement
0 !HISTORY 2008-07-01 [PTadmin] Official Update 2008-01
0 !HISTORY 2012-05-02 [TK-949] Complete Rewrite
0 !HISTORY 2012-08-09 [PTadmin] Official Update 2012-02
0 !HISTORY 2024-09-05 [Lego-Manfred] Reference and sets added, colour of the hair changed
0 !HISTORY 2026-06-20 [MagFors] Complete rework, Original by Thomas Burger
0 !HISTORY 2026-06-28 [OrionP] Official Update 2026-06

1 16 0 0 0 1 0 0 0 1 0 0 0 1 s\3626bs02.dat
1 16 0 4 0 0 0 13 0 13 0 13 0 0 5-16cyli.dat
1 16 0 4 0 0 0 -13 0 13 0 13 0 0 5-16cyli.dat

1 16 0 4 0 0 0 8 0 -6.4 0 8 0 0 t04o6250.dat
1 16 0 4 0 -8 0 0 0 -6.4 0 0 0 8 t04o6250.dat
1 16 0 17 0 0 0 -8 0 6.4 0 8 0 0 t04o6250.dat
1 16 0 17 0 8 0 0 0 6.4 0 0 0 8 t04o6250.dat
1 16 0 4 0 -8 0 0 0 -6.4 0 0 0 -8 t16o6250.dat
1 16 0 4 0 8 0 0 0 -6.4 0 0 0 -8 t16o6250.dat
1 16 0 17 0 0 0 8 0 6.4 0 -8 0 0 t04o6250.dat
1 16 0 17 0 -8 0 0 0 6.4 0 0 0 -8 t04o6250.dat

0 // Pattern
4 6 -5.2225 9.3521 -11.8454 -5.3204 9.8435 -11.78 -5.2225 10.335 -11.8454 -4.975 10.863 -12.0108
3 6 -4.975 8.857 -12.0108 -5.2225 9.3521 -11.8454 -4.975 10.863 -12.0108
4 6 -3.43 10.02 -12.3179 -3.73 9.32 -12.2583 -4.472 11.2518 -12.1107 -3.85 11.382 -12.2344
4 6 -3.1 10.59 -12.3836 -3.43 10.02 -12.3179 -3.85 11.382 -12.2344 -3.268 11.266 -12.3502
3 6 -3.1 10.59 -12.3836 -3.268 11.266 -12.3502 -2.851 10.988 -12.4331
3 6 -3.86 8.8 -12.2324 -4.472 11.2518 -12.1107 -3.73 9.32 -12.2583
4 6 -4.472 8.4682 -12.1107 -4.975 8.857 -12.0108 -4.975 10.863 -12.0108 -4.472 11.2518 -12.1107
4 6 -3.87 8.342 -12.2305 -4.472 8.4682 -12.1107 -4.472 11.2518 -12.1107 -3.86 8.8 -12.2324
4 508 -10.67 8.14 -6.9812 -10.64 8.17 -7.0261 -10.6 8.14 -7.0859 -10.71 8.03 -6.9214
4 508 -10.71 8.03 -6.9214 -10.6 8.14 -7.0859 -10.55 8.04 -7.1608 -10.78 7.61 -6.8166
4 508 -10.78 7.61 -6.8166 -10.55 8.04 -7.1608 -10.44 7.62 -7.3254 -10.28 6.89 -7.5648
4 508 -10.85 6.82 -6.7119 -10.78 7.61 -6.8166 -10.28 6.89 -7.5648 -10.09 6.11 -7.8491
4 508 -10.89 5.88 -6.652 -10.85 6.82 -6.7119 -10.09 6.11 -7.8491 -9.95 5.71 -8.0586
4 508 -10.89 5.88 -6.652 -9.95 5.71 -8.0586 -9.84 5.5 -8.2231 -10.9 5.05 -6.6371
4 508 -10.9 5.05 -6.6371 -9.84 5.5 -8.2231 -9.7878 5.41 -8.3012 -10.8733 4 -6.6769
4 508 -10.48 3.03 -6.8399 -10.72 3.55 -6.7089 -10.8733 4 -6.6769 -9.1922 4 -9.1922
3 508 -10.8733 4 -6.6769 -9.7878 5.41 -8.3012 -9.1922 4 -9.1922
3 508 -9.1922 4 -9.1922 -9.7878 5.41 -8.3012 -9.75 5.46 -8.3578
3 508 -9.1922 4 -9.1922 -9.75 5.46 -8.3578 -9.73 5.89 -8.3877
4 508 -8.4 10 -9.7218 -9.192 10 -9.1925 -9.14 10.15 -9.2273 -8.98 10.46 -9.3342
3 508 -8.41 9.4 -9.7151 -9.192 10 -9.1925 -8.4 10 -9.7218
4 508 -8.4 10 -9.7218 -8.98 10.46 -9.3342 -8.78 10.72 -9.4678 -8.41 10.5 -9.7151
4 508 -8.41 10.5 -9.7151 -8.78 10.72 -9.4678 -8.62 10.84 -9.5748 -8.45 10.77 -9.6884
4 508 -8.45 10.77 -9.6884 -8.62 10.84 -9.5748 -8.55 10.88 -9.6216 -8.5 10.86 -9.655
3 508 -8.42 8.8 -9.7084 -9.192 10 -9.1925 -8.41 9.4 -9.7151
3 508 -8.4 8.31 -9.7218 -9.192 10 -9.1925 -8.42 8.8 -9.7084
4 508 -4.66 13.94 -12.0734 -4.975 13.38 -12.0108 -4.975 14.42 -12.0108 -4.78 14.47 -12.0495
4 508 -4.78 14.47 -12.0495 -4.64 14.47 -12.0773 -4.56 14.26 -12.0932 -4.66 13.94 -12.0734
4 508 -6.1 13.6 -11.2589 -5.57 14.08 -11.6131 -5.22 12.96 -11.847 -6.56 13.06 -10.9515
3 508 -4.56 14.26 -12.0932 -4.64 14.47 -12.0773 -4.58 14.41 -12.0893
4 508 -6.56 13.06 -10.9515 -5.22 12.96 -11.847 -5.51 12.41 -11.6532 -6.93 12.54 -10.7042
4 508 -6.93 12.54 -10.7042 -5.51 12.41 -11.6532 -5.77 11.8 -11.4795 -7.27 11.97 -10.477
4 508 -7.27 11.97 -10.477 -5.77 11.8 -11.4795 -5.95 11.16 -11.3592 -7.56 11.38 -10.2832
4 508 -7.56 11.38 -10.2832 -5.95 11.16 -11.3592 -6.02 10.65 -11.3124 -7.79 10.81 -10.1295
4 508 -7.79 10.81 -10.1295 -6.02 10.65 -11.3124 -6.02 10.13 -11.3124 -7.99 10.18 -9.9958
4 508 -8.11 9.66 -9.9156 -7.99 10.18 -9.9958 -6.02 10.13 -11.3124 -5.96 9.69 -11.3525
4 508 -8.19 9.12 -9.8622 -8.11 9.66 -9.9156 -5.96 9.69 -11.3525 -4.975 8.857 -12.0108
4 508 -8.22 8.63 -9.8421 -8.19 9.12 -9.8622 -4.975 8.857 -12.0108 -8.22 8.13 -9.8421
4 508 -4.472 8.4682 -12.1107 -3.85 8.01 -12.2344 -3.73 7.61 -12.2583 -4.975 4 -12.0106
3 508 -3.85 8.01 -12.2344 -4.472 8.4682 -12.1107 -3.87 8.342 -12.2305
4 508 -.98 8.3 -12.8051 -1.08 7.63 -12.7852 -2.75 8.4 -12.4532 -2.31 8.9 -12.5407
4 508 -2.75 8.4 -12.4532 -1.08 7.63 -12.7852 -1.09 7.01 -12.7833 -3.16 7.86 -12.3716
4 508 -.98 8.3 -12.8051 -2.31 8.9 -12.5407 -1.9 9.24 -12.6222 -.85 8.93 -12.831
4 508 -.85 8.93 -12.831 -1.9 9.24 -12.6222 -1.53 9.43 -12.6958 -1.21 9.48 -12.7594
4 508 -.82 9.19 -12.8369 -.85 8.93 -12.831 -1.21 9.48 -12.7594 -.97 9.44 -12.8071
3 508 -.82 9.19 -12.8369 -.97 9.44 -12.8071 -.85 9.35 -12.831
4 508 -2.33 12.34 -12.5367 -2.27 12.18 -12.5486 -2.31 11.96 -12.5407 -2.49 12.44 -12.5049
4 508 -2.75 12.47 -12.4532 -2.49 12.44 -12.5049 -2.31 11.96 -12.5407 -2.51 11.53 -12.5009
4 508 -3.09 12.4 -12.3856 -2.75 12.47 -12.4532 -2.51 11.53 -12.5009 -2.851 10.988 -12.4331
4 508 -3.45 12.23 -12.314 -3.09 12.4 -12.3856 -2.851 10.988 -12.4331 -3.268 11.266 -12.3502
4 508 -3.45 12.23 -12.314 -3.268 11.266 -12.3502 -3.85 11.382 -12.2344 -3.99 11.85 -12.2066
4 508 -4.41 11.47 -12.1231 -3.99 11.85 -12.2066 -3.85 11.382 -12.2344 -4.472 11.2518 -12.1107
3 508 -4.975 10.863 -12.0108 -4.41 11.47 -12.1231 -4.472 11.2518 -12.1107
3 508 -1.09 7.01 -12.7833 -3.5 7.42 -12.304 -3.16 7.86 -12.3716
4 508 -3.57 7.37 -12.2901 -3.5 7.42 -12.304 -1.09 7.01 -12.7833 -.98 6.16 -12.8051
4 508 7.26 3.63 -10.3752 7.25 3.27 -10.2763 5.72 3.63 -11.4044 6.02 4 -11.3124
3 508 7.26 3.63 -10.3752 6.02 4 -11.3124 7.2566 4 -10.4859
4 508 7.2566 4 -10.4859 6.02 4 -11.3124 6.29 4.45 -11.1319 7.18 4.42 -10.5371
4 508 6.45 4.79 -11.025 7.07 4.76 -10.6107 7.18 4.42 -10.5371 6.29 4.45 -11.1319
4 508 6.9 5 -10.7243 7.07 4.76 -10.6107 6.45 4.79 -11.025 6.57 5.04 -10.9448
4 508 6.57 5.04 -10.9448 6.62 5.1 -10.9114 6.73 5.09 -10.8379 6.9 5 -10.7243
4 508 8.54 4.93 -9.6282 8.62 5.34 -9.5748 9.05 5.39 -9.2874 9.192 5.19 -9.1928
4 508 8.87 5.56 -9.4077 8.71 5.54 -9.5146 8.76 5.59 -9.4812 8.81 5.6 -9.4478
4 508 8.87 5.56 -9.4077 9.05 5.39 -9.2874 8.62 5.34 -9.5748 8.71 5.54 -9.5146
4 508 8.42 4.42 -9.7084 8.54 4.93 -9.6282 9.192 5.19 -9.1928 9.192 4 -9.1923
3 508 9.192 4 -9.1923 8.21 4 -9.8488 8.42 4.42 -9.7084
4 508 9.192 4 -9.1923 9.3 4.92 -9.0312 9.37 4.53 -8.9264 9.4111 4 -8.8649
3 508 9.192 4 -9.1923 9.4111 4 -8.8649 9.38 3.61 -8.7403
4 508 8.9231 2.4691 -8.9231 9.192 4 -9.1923 9.38 3.61 -8.7403 9.35 3.2 -8.6053
4 508 10.17 6.02 -7.7294 10.2 6.09 -7.6845 10.28 6.12 -7.5648 10.4 6.08 -7.3852
4 508 10.17 5.87 -7.7294 10.17 6.02 -7.7294 10.4 6.08 -7.3852 10.59 5.87 -7.1009
4 508 10.24 5.39 -7.6246 10.17 5.87 -7.7294 10.59 5.87 -7.1009 10.78 5.47 -6.8166
4 508 10.26 4.89 -7.5947 10.24 5.39 -7.6246 10.78 5.47 -6.8166 10.87 4.91 -6.6819
4 508 10.26 4.89 -7.5947 10.87 4.91 -6.6819 10.89 4.4 -6.652 10.19 4.42 -7.6994
4 508 10.19 4.42 -7.6994 10.89 4.4 -6.652 10.8678 4 -6.6853 10.04 4 -7.9239
4 508 9.94 3.82 -7.9946 10.04 4 -7.9239 10.8678 4 -6.6853 10.72 3.55 -6.709
4 508 9.7 3.52 -8.2221 9.94 3.82 -7.9946 10.72 3.55 -6.709 10.48 3.03 -6.84
4 508 9.35 3.2 -8.6053 9.7 3.52 -8.2221 10.48 3.03 -6.84 10.0845 2.469 -7.1856
4 508 8.9231 2.4691 -8.9231 10.0845 2.469 -7.1856 9.4189 2.05 -7.5633 8.8689 1.8 -8.0176
4 508 8.9231 2.4691 -8.9231 8.432 1.639 -8.434 7.29 1.52 -9.0793 4.83 2.469 -11.6589
4 508 5.7 1.44 -10.0629 4.488 1.401 -10.8345 4.83 2.469 -11.6589 7.29 1.52 -9.0793
4 508 3.2 2.4 -11.9254 3.59 2.469 -11.9055 4.83 2.469 -11.6589 4.488 1.401 -10.8345
4 508 -4.83 2.469 -11.6589 -4.488 1.401 -10.8344 -5.7 1.44 -10.0628 -7.29 1.52 -9.0792
4 508 -8.9231 2.4691 -8.9231 -8.93 1.8 -7.9263 -9.48 2.05 -7.472 -10.14 2.469 -7.1025
4 508 -9.1922 4 -9.1922 -9.73 5.89 -8.3877 -9.69 6.78 -8.4476 -9.65 7.4 -8.5074
4 508 -9.1922 4 -9.1922 -8.26 7.73 -9.8154 -8.17 7.65 -9.8755 -4.975 4 -12.0106
4 508 -9.192 10 -9.1925 -8.4 8.31 -9.7218 -8.35 7.95 -9.7552 -9.1922 4 -9.1922
3 508 -4.975 8.857 -12.0108 -5.96 9.69 -11.3525 -5.2225 9.3521 -11.8454
4 508 -5.3204 9.8435 -11.78 -5.2225 9.3521 -11.8454 -5.96 9.69 -11.3525 -5.7 10.02 -11.5262
4 508 -5.31 10.49 -11.7869 -5.2225 10.335 -11.8454 -5.3204 9.8435 -11.78 -5.7 10.02 -11.5262
3 508 -4.975 4 -12.0106 -3.73 7.61 -12.2583 -3.63 7.4 -12.2782
4 508 -3.57 7.37 -12.2901 -.98 6.16 -12.8051 -.76 5.43 -12.8489 -4.975 4 -12.0106
4 508 0 1.4 -11.7259 0 2.469 -12.6191 2.2 2.469 -12.1818 2.71 2.37 -11.9977
4 508 4.488 1.401 -10.8345 0 1.4 -11.7259 2.71 2.37 -11.9977 3.2 2.4 -11.9254
4 508 5.33 3.27 -11.5595 5.72 3.63 -11.4044 7.25 3.27 -10.2763 4.83 2.469 -11.6589
4 508 -7.29 1.52 -9.0792 -8.432 1.639 -8.4333 -8.9231 2.4691 -8.9231 -4.83 2.469 -11.6589
3 508 -4.975 4 -12.0106 -3.63 7.4 -12.2782 -3.57 7.37 -12.2901
3 508 -4.975 4 -12.0106 -.76 5.43 -12.8489 -.53 4.77 -12.8946
3 508 -9.1922 4 -9.1922 -8.35 7.95 -9.7552 -8.26 7.73 -9.8154
3 508 0 4 -13 -4.975 4 -12.0106 -.53 4.77 -12.8946
4 508 -10.14 2.469 -7.1025 -10.48 3.03 -6.8399 -9.1922 4 -9.1922 -8.9231 2.4691 -8.9231
3 508 -8.432 1.639 -8.4333 -8.93 1.8 -7.9263 -8.9231 2.4691 -8.9231
4 508 -8.9231 2.4691 -8.9231 -9.1922 4 -9.1922 -4.975 4 -12.0106 -4.83 2.469 -11.6589
4 508 -4.83 2.469 -11.6589 -4.975 4 -12.0106 0 4 -13 0 2.469 -12.6191
4 508 0 1.4 -11.7259 -4.488 1.401 -10.8344 -4.83 2.469 -11.6589 0 2.469 -12.6191
3 508 0 2.469 -12.6191 0 4 -13 .52 3.49 -12.7698
3 508 0 2.469 -12.6191 .52 3.49 -12.7698 1.15 2.94 -12.5077
3 508 0 2.469 -12.6191 1.15 2.94 -12.5077 1.75 2.66 -12.3188
3 508 2.2 2.469 -12.1818 0 2.469 -12.6191 1.75 2.66 -12.3188
3 508 4.83 2.469 -11.6589 3.59 2.469 -11.9055 4 2.58 -11.8517
3 508 4.83 2.469 -11.6589 4.5 2.77 -11.7995 4.876 2.96 -11.7721
3 508 4.83 2.469 -11.6589 4 2.58 -11.8517 4.5 2.77 -11.7995
3 508 8.9231 2.4691 -8.9231 4.83 2.469 -11.6589 7.25 3.27 -10.2763
3 508 4.83 2.469 -11.6589 4.876 2.96 -11.7721 5.33 3.27 -11.5595
4 508 8.21 4 -9.8488 9.192 4 -9.1923 8.9231 2.4691 -8.9231 7.95 3.69 -9.9316
3 508 8.9231 2.4691 -8.9231 7.57 3.42 -10.1064 7.95 3.69 -9.9316
3 508 8.9231 2.4691 -8.9231 7.25 3.27 -10.2763 7.57 3.42 -10.1064
3 508 10.0845 2.469 -7.1856 8.9231 2.4691 -8.9231 9.35 3.2 -8.6053
3 508 8.432 1.639 -8.434 8.9231 2.4691 -8.9231 8.8689 1.8 -8.0176
3 508 9.192 4 -9.1923 9.192 5.19 -9.1928 9.3 4.92 -9.0312
4 508 -9.31 9.64 -9.0162 -9.192 10 -9.1925 -9.1922 4 -9.1922 -9.43 9.13 -8.8366
4 508 -9.1922 4 -9.1922 -9.65 7.4 -8.5074 -9.59 8.05 -8.5972 -9.52 8.6 -8.702
3 508 -9.1922 4 -9.1922 -9.52 8.6 -8.702 -9.43 9.13 -8.8366
3 508 -4.975 4 -12.0106 -4.975 8.857 -12.0108 -4.472 8.4682 -12.1107
4 508 -4.975 8.857 -12.0108 -4.975 4 -12.0106 -8.17 7.65 -9.8755 -8.22 8.13 -9.8421
4 508 -4.975 13.38 -12.0108 -5.22 12.96 -11.847 -5.57 14.08 -11.6131 -4.975 14.42 -12.0108
3 508 -5.2225 10.335 -11.8454 -5.31 10.49 -11.7869 -4.975 10.863 -12.0108
4 0 -3.268 8.454 -12.3502 -3.87 8.342 -12.2305 -3.86 8.8 -12.2324 -2.774 8.784 -12.4484
4 0 -2.774 8.784 -12.4484 -3.86 8.8 -12.2324 -3.73 9.32 -12.2583 -2.444 9.278 -12.514
4 0 -2.444 10.442 -12.514 -2.328 9.86 -12.5371 -2.444 9.278 -12.514 -3.43 10.02 -12.3179
4 0 -2.444 10.442 -12.514 -3.43 10.02 -12.3179 -3.1 10.59 -12.3836 -2.851 10.988 -12.4331
3 0 -2.444 9.278 -12.514 -3.73 9.32 -12.2583 -3.43 10.02 -12.3179
4 0 1.44 8.94 -12.7137 1.49 9.05 -12.7037 1.63 9.1 -12.6759 1.47 8.84 -12.7077
4 0 1.47 8.84 -12.7077 1.63 9.1 -12.6759 1.81 9.1 -12.6401 1.62 8.7 -12.6779
4 0 2.07 8.38 -12.5884 1.62 8.7 -12.6779 1.81 9.1 -12.6401 2.649 8.971 -12.4733
4 0 2.66 8.02 -12.4711 2.07 8.38 -12.5884 2.649 8.971 -12.4733 4.313 8.43 -12.1424
4 0 6.87 9.37 -10.7443 7.05 9.34 -10.624 7.21 9.21 -10.5171 7.28 8.98 -10.4703
4 0 6.67 9.32 -10.878 6.87 9.37 -10.7443 7.28 8.98 -10.4703 7.27 8.77 -10.477
4 0 6.67 9.32 -10.878 7.27 8.77 -10.477 7.23 8.59 -10.5037 7.09 8.37 -10.5973
4 0 6.12 9 -11.2456 6.67 9.32 -10.878 7.09 8.37 -10.5973 6.68 7.9 -10.8713
4 0 5.57 8.66 -11.6131 6.12 9 -11.2456 6.68 7.9 -10.8713 6.18 7.42 -11.2055
4 0 5.24 8.5 -11.8337 5.57 8.66 -11.6131 6.18 7.42 -11.2055 5.63 6.99 -11.573
4 0 4.975 8.827 -12.0107 4.432 8.454 -12.1187 4.313 8.43 -12.1424 3.85 11.382 -12.2344
4 0 5.31 6.82 -11.7869 5.16 6.79 -11.8871 5.24 8.5 -11.8337 5.63 6.99 -11.573
4 0 4.975 8.42 -12.0107 4.975 6.83 -12.0107 4.8 6.89 -12.0455 4.82 8.38 -12.0415
3 0 4.8 6.89 -12.0455 4.6 8.35 -12.0853 4.82 8.38 -12.0415
3 0 4.8 6.89 -12.0455 4.51 8.35 -12.1032 4.6 8.35 -12.0853
4 0 4.41 8.38 -12.1231 4.51 8.35 -12.1032 4.8 6.89 -12.0455 4.29 7.12 -12.1469
4 0 4.313 8.43 -12.1424 4.41 8.38 -12.1231 4.29 7.12 -12.1469 3.47 7.55 -12.31
3 0 3.47 7.55 -12.31 2.66 8.02 -12.4711 4.313 8.43 -12.1424
4 0 2.649 8.971 -12.4733 2.444 9.278 -12.514 2.328 9.86 -12.5371 2.444 10.442 -12.514
4 0 2.444 10.442 -12.514 2.774 10.936 -12.4484 3.268 11.266 -12.3502 3.85 11.382 -12.2344
4 0 3.85 11.382 -12.2344 4.432 11.266 -12.1187 4.975 10.903 -12.0107 4.975 8.827 -12.0107
4 0 5.2422 10.394 -11.8322 5.3482 9.8618 -11.7614 5.2422 9.3297 -11.8322 4.975 8.827 -12.0107
4 0 3.84 14.78 -12.2364 3.89 14.54 -12.2265 3.79 14.32 -12.2464 3.6 14.2 -12.2841
4 0 3.84 14.78 -12.2364 3.6 14.2 -12.2841 3.42 14.23 -12.3199 3.71 14.95 -12.2623
4 0 3.47 15.11 -12.31 3.71 14.95 -12.2623 3.42 14.23 -12.3199 2.84 14.48 -12.4353
4 0 2.91 15.4 -12.4214 3.47 15.11 -12.31 2.84 14.48 -12.4353 2.24 14.66 -12.5546
4 0 2.31 15.64 -12.5407 2.91 15.4 -12.4214 2.24 14.66 -12.5546 1.51 14.83 -12.6997
4 0 1.58 15.84 -12.6858 2.31 15.64 -12.5407 1.51 14.83 -12.6997 .79 15.96 -12.8429
4 0 .79 15.96 -12.8429 1.51 14.83 -12.6997 .7 14.94 -12.8608 0 16.01 -13
3 0 .7 14.94 -12.8608 0 14.96 -13 0 16.01 -13
4 0 -.79 15.96 -12.8429 0 16.01 -13 0 14.96 -13 -.7 14.94 -12.8608
4 0 -1.58 15.84 -12.6858 -.79 15.96 -12.8429 -.7 14.94 -12.8608 -1.51 14.83 -12.6997
4 0 -2.31 15.64 -12.5407 -1.58 15.84 -12.6858 -1.51 14.83 -12.6997 -2.24 14.66 -12.5546
4 0 -2.91 15.4 -12.4214 -2.31 15.64 -12.5407 -2.24 14.66 -12.5546 -2.84 14.48 -12.4353
4 0 -3.47 15.11 -12.31 -2.91 15.4 -12.4214 -2.84 14.48 -12.4353 -3.71 14.95 -12.2623
4 0 -3.71 14.95 -12.2623 -2.84 14.48 -12.4353 -3.42 14.23 -12.3199 -3.84 14.78 -12.2364
4 0 -3.84 14.78 -12.2364 -3.42 14.23 -12.3199 -3.6 14.2 -12.2841 -3.89 14.54 -12.2265
3 0 -3.6 14.2 -12.2841 -3.79 14.32 -12.2464 -3.89 14.54 -12.2265
4 0 5.16 6.79 -11.8871 4.975 6.83 -12.0107 4.975 8.42 -12.0107 5.24 8.5 -11.8337
3 0 4.975 8.827 -12.0107 4.975 10.903 -12.0107 5.2422 10.394 -11.8322
4 0 3.85 11.382 -12.2344 4.313 8.43 -12.1424 2.649 8.971 -12.4733 2.444 10.442 -12.514
4 16 7.26 3.63 -10.3752 7.2566 4 -10.4859 8.21 4 -9.8488 7.95 3.69 -9.9316
4 16 7.57 3.42 -10.1064 7.25 3.27 -10.2763 7.26 3.63 -10.3752 7.95 3.69 -9.9316
4 16 5.33 3.27 -11.5595 4.876 2.96 -11.7721 4.975 4 -12.0106 5.72 3.63 -11.4044
4 16 10.6576 1.1718 -4.4144 9.4189 2.05 -7.5633 10.0845 2.469 -7.1856 11.6592 2.4691 -4.8296
4 16 8.157 1.172 -8.1569 8.432 1.639 -8.434 8.8689 1.8 -8.0176 10.6576 1.1718 -4.4144
3 16 10.6576 1.1718 -4.4144 8.8689 1.8 -8.0176 9.4189 2.05 -7.5633
3 16 5.72 3.63 -11.4044 4.975 4 -12.0106 6.02 4 -11.3124
4 16 10.19 4.42 -7.6994 9.37 4.53 -8.9264 9.3 4.92 -9.0312 10.26 4.89 -7.5947
4 16 10.26 4.89 -7.5947 9.3 4.92 -9.0312 9.192 5.19 -9.1928 10.24 5.39 -7.6246
3 16 9.192 5.19 -9.1928 10.17 5.87 -7.7294 10.24 5.39 -7.6246
4 16 10.04 4 -7.9239 9.4111 4 -8.8649 9.37 4.53 -8.9264 10.19 4.42 -7.6994
3 16 -10.72 3.55 -6.7089 -12.0107 4 -4.9751 -10.8733 4 -6.6769
4 16 -12.0107 4 -4.9751 -10.72 3.55 -6.7089 -10.48 3.03 -6.8399 -11.6592 2.4691 -4.8296
3 16 -10.14 2.469 -7.1025 -11.6592 2.4691 -4.8296 -10.48 3.03 -6.8399
4 16 3.7938 .3048 -9.1591 4.414 1.172 -10.6581 8.157 1.172 -8.1569 7.0098 .3048 -7.0098
4 16 -3.7938 .3048 -9.1591 -4.414 1.172 -10.658 0 1.172 -11.5353 0 .3048 -9.9138
4 16 -9.1592 .3046 -3.7936 -10.6576 1.1718 -4.4144 -8.157 1.172 -8.157 -7.0098 .3048 -7.0098
4 16 10.59 5.87 -7.1009 12.0104 17 -4.9752 12.0104 4 -4.9752 10.78 5.47 -6.8166
4 16 -5.6568 0 -5.6568 -7.0098 .3048 -7.0098 -3.7938 .3048 -9.1591 -3.0616 0 -7.3912
4 16 -8.157 1.172 -8.157 -7.29 1.52 -9.0792 -5.7 1.44 -10.0628 -4.414 1.172 -10.658
3 16 -4.414 1.172 -10.658 -5.7 1.44 -10.0628 -4.488 1.401 -10.8344
4 16 2.71 2.37 -11.9977 2.2 2.469 -12.1818 3.59 2.469 -11.9055 3.2 2.4 -11.9254
3 16 -8.157 1.172 -8.157 -8.432 1.639 -8.4333 -7.29 1.52 -9.0792
4 16 0 0 -8 0 .3048 -9.9138 3.7938 .3048 -9.1591 3.0616 0 -7.3912
4 16 5.6568 0 -5.6568 7.0098 .3048 -7.0098 9.1592 .3046 -3.7936 7.3912 0 -3.0616
4 16 0 1.172 -11.5353 0 1.4 -11.7259 4.488 1.401 -10.8345 4.414 1.172 -10.6581
3 16 9.192 5.19 -9.1928 10.17 6.02 -7.7294 10.17 5.87 -7.7294
4 16 2.84 14.48 -12.4353 3.42 14.23 -12.3199 3.268 11.266 -12.3502 2.24 14.66 -12.5546
4 16 1.51 14.83 -12.6997 2.24 14.66 -12.5546 3.268 11.266 -12.3502 .7 14.94 -12.8608
4 16 3.6 14.2 -12.2841 3.79 14.32 -12.2464 4.432 11.266 -12.1187 3.85 11.382 -12.2344
4 16 3.6 14.2 -12.2841 3.85 11.382 -12.2344 3.268 11.266 -12.3502 3.42 14.23 -12.3199
4 16 0 14.96 -13 .7 14.94 -12.8608 3.268 11.266 -12.3502 2.774 10.936 -12.4484
3 16 2.444 10.442 -12.514 0 14.96 -13 2.774 10.936 -12.4484
4 16 4.82 8.38 -12.0415 4.6 8.35 -12.0853 4.975 8.827 -12.0107 4.975 8.42 -12.0107
3 16 4.432 11.266 -12.1187 3.79 14.32 -12.2464 3.89 14.54 -12.2265
3 16 3.47 15.11 -12.31 2.91 15.4 -12.4214 4.9752 17 -12.0104
3 16 3.71 14.95 -12.2623 3.47 15.11 -12.31 4.9752 17 -12.0104
4 16 4.9752 17 -12.0104 2.31 15.64 -12.5407 1.58 15.84 -12.6858 0 17 -13
3 16 2.91 15.4 -12.4214 2.31 15.64 -12.5407 4.9752 17 -12.0104
4 16 4.9752 17 -12.0104 4.975 10.903 -12.0107 4.432 11.266 -12.1187 3.89 14.54 -12.2265
3 16 3.84 14.78 -12.2364 3.71 14.95 -12.2623 4.9752 17 -12.0104
3 16 3.89 14.54 -12.2265 3.84 14.78 -12.2364 4.9752 17 -12.0104
3 16 0 4 -13 3.47 7.55 -12.31 4.29 7.12 -12.1469
3 16 0 4 -13 4.29 7.12 -12.1469 4.8 6.89 -12.0455
3 16 0 4 -13 2.07 8.38 -12.5884 2.66 8.02 -12.4711
3 16 0 4 -13 2.66 8.02 -12.4711 3.47 7.55 -12.31
4 16 4.41 8.38 -12.1231 4.313 8.43 -12.1424 4.432 8.454 -12.1187 4.51 8.35 -12.1032
4 16 4.6 8.35 -12.0853 4.51 8.35 -12.1032 4.432 8.454 -12.1187 4.975 8.827 -12.0107
4 16 0 4 -13 4.8 6.89 -12.0455 4.975 6.83 -12.0107 4.975 4 -12.0106
3 16 0 4 -13 1.62 8.7 -12.6779 2.07 8.38 -12.5884
3 16 2.649 8.971 -12.4733 1.81 9.1 -12.6401 2.444 9.278 -12.514
4 16 1.63 9.1 -12.6759 1.49 9.05 -12.7037 0 14.96 -13 2.328 9.86 -12.5371
3 16 2.328 9.86 -12.5371 0 14.96 -13 2.444 10.442 -12.514
4 16 1.63 9.1 -12.6759 2.328 9.86 -12.5371 2.444 9.278 -12.514 1.81 9.1 -12.6401
3 16 0 4 -13 1.44 8.94 -12.7137 1.47 8.84 -12.7077
3 16 0 4 -13 1.47 8.84 -12.7077 1.62 8.7 -12.6779
3 16 1.44 8.94 -12.7137 0 14.96 -13 1.49 9.05 -12.7037
3 16 0 4 -13 0 14.96 -13 1.44 8.94 -12.7137
3 16 1.58 15.84 -12.6858 .79 15.96 -12.8429 0 17 -13
4 16 -8.19 9.12 -9.8622 -8.42 8.8 -9.7084 -8.41 9.4 -9.7151 -8.11 9.66 -9.9156
4 16 -8.11 9.66 -9.9156 -8.41 9.4 -9.7151 -8.4 10 -9.7218 -7.99 10.18 -9.9958
4 16 -8.22 8.13 -9.8421 -8.35 7.95 -9.7552 -8.4 8.31 -9.7218 -8.22 8.63 -9.8421
4 16 -8.22 8.63 -9.8421 -8.4 8.31 -9.7218 -8.42 8.8 -9.7084 -8.19 9.12 -9.8622
4 16 -7.79 10.81 -10.1295 -8.45 10.77 -9.6884 -8.5 10.86 -9.655 -7.56 11.38 -10.2832
4 16 -7.56 11.38 -10.2832 -8.5 10.86 -9.655 -8.55 10.88 -9.6216 -9.192 17 -9.192
4 16 -7.99 10.18 -9.9958 -8.4 10 -9.7218 -8.41 10.5 -9.7151 -7.79 10.81 -10.1295
3 16 -8.41 10.5 -9.7151 -8.45 10.77 -9.6884 -7.79 10.81 -10.1295
4 16 -8.22 8.13 -9.8421 -8.17 7.65 -9.8755 -8.26 7.73 -9.8154 -8.35 7.95 -9.7552
3 16 12.0104 4 -4.9752 10.89 4.4 -6.652 10.87 4.91 -6.6819
3 16 12.0104 4 -4.9752 10.87 4.91 -6.6819 10.78 5.47 -6.8166
4 16 10.2 6.09 -7.6845 10.17 6.02 -7.7294 9.192 5.19 -9.1928 9.192 17 -9.192
3 16 12.0104 4 -4.9752 10.8678 4 -6.6853 10.89 4.4 -6.652
3 16 10.4 6.08 -7.3852 10.28 6.12 -7.5648 12.0104 17 -4.9752
4 16 12.0104 17 -4.9752 10.28 6.12 -7.5648 10.2 6.09 -7.6845 9.192 17 -9.192
3 16 10.59 5.87 -7.1009 10.4 6.08 -7.3852 12.0104 17 -4.9752
4 16 -5.22 12.96 -11.847 -4.975 13.38 -12.0108 -4.975 10.863 -12.0108 -5.51 12.41 -11.6532
4 16 -5.77 11.8 -11.4795 -5.51 12.41 -11.6532 -4.975 10.863 -12.0108 -5.95 11.16 -11.3592
3 16 -6.1 13.6 -11.2589 -9.192 17 -9.192 -5.57 14.08 -11.6131
4 16 -4.975 14.42 -12.0108 -5.57 14.08 -11.6131 -9.192 17 -9.192 -4.9752 17 -12.0104
4 16 -5.7 10.02 -11.5262 -5.96 9.69 -11.3525 -6.02 10.13 -11.3124 -6.02 10.65 -11.3124
3 16 .79 15.96 -12.8429 0 16.01 -13 0 17 -13
4 16 -6.02 10.65 -11.3124 -5.95 11.16 -11.3592 -4.975 10.863 -12.0108 -5.31 10.49 -11.7869
3 16 -5.7 10.02 -11.5262 -6.02 10.65 -11.3124 -5.31 10.49 -11.7869
3 16 -6.56 13.06 -10.9515 -9.192 17 -9.192 -6.1 13.6 -11.2589
3 16 -8.98 10.46 -9.3342 -9.192 17 -9.192 -8.78 10.72 -9.4678
3 16 -9.14 10.15 -9.2273 -9.192 17 -9.192 -8.98 10.46 -9.3342
3 16 -8.62 10.84 -9.5748 -9.192 17 -9.192 -8.55 10.88 -9.6216
3 16 -8.78 10.72 -9.4678 -9.192 17 -9.192 -8.62 10.84 -9.5748
3 16 -7.27 11.97 -10.477 -9.192 17 -9.192 -6.93 12.54 -10.7042
3 16 -6.93 12.54 -10.7042 -9.192 17 -9.192 -6.56 13.06 -10.9515
3 16 -9.192 10 -9.1925 -9.192 17 -9.192 -9.14 10.15 -9.2273
3 16 -7.56 11.38 -10.2832 -9.192 17 -9.192 -7.27 11.97 -10.477
3 16 -10.67 8.14 -6.9812 -12.0107 17 -4.9751 -10.64 8.17 -7.0261
4 16 -12.0107 17 -4.9751 -9.43 9.13 -8.8366 -9.52 8.6 -8.702 -10.64 8.17 -7.0261
4 16 -10.71 8.03 -6.9214 -10.78 7.61 -6.8166 -12.0107 4 -4.9751 -12.0107 17 -4.9751
3 16 -10.71 8.03 -6.9214 -12.0107 17 -4.9751 -10.67 8.14 -6.9812
3 16 -9.43 9.13 -8.8366 -12.0107 17 -4.9751 -9.31 9.64 -9.0162
4 16 5.7 1.44 -10.0629 7.29 1.52 -9.0793 8.157 1.172 -8.1569 4.414 1.172 -10.6581
3 16 4.414 1.172 -10.6581 4.488 1.401 -10.8345 5.7 1.44 -10.0629
4 16 -9.192 10 -9.1925 -9.31 9.64 -9.0162 -12.0107 17 -4.9751 -9.192 17 -9.192
3 16 8.157 1.172 -8.1569 7.29 1.52 -9.0793 8.432 1.639 -8.434
3 16 -12.0107 4 -4.9751 -10.78 7.61 -6.8166 -10.85 6.82 -6.7119
4 16 -3.89 14.54 -12.2265 -4.56 14.26 -12.0932 -4.58 14.41 -12.0893 -3.84 14.78 -12.2364
4 16 -3.84 14.78 -12.2364 -4.58 14.41 -12.0893 -4.64 14.47 -12.0773 -4.9752 17 -12.0104
4 16 7.05 9.34 -10.624 6.87 9.37 -10.7443 5.2422 10.394 -11.8322 9.192 17 -9.192
4 16 4.975 10.903 -12.0107 4.9752 17 -12.0104 9.192 17 -9.192 5.2422 10.394 -11.8322
3 16 -3.71 14.95 -12.2623 -4.9752 17 -12.0104 -3.47 15.11 -12.31
3 16 -3.47 15.11 -12.31 -4.9752 17 -12.0104 -2.91 15.4 -12.4214
3 16 -2.91 15.4 -12.4214 -4.9752 17 -12.0104 -2.31 15.64 -12.5407
3 16 -4.975 14.42 -12.0108 -4.9752 17 -12.0104 -4.78 14.47 -12.0495
3 16 -4.64 14.47 -12.0773 -4.78 14.47 -12.0495 -4.9752 17 -12.0104
3 16 -3.84 14.78 -12.2364 -4.9752 17 -12.0104 -3.71 14.95 -12.2623
3 16 7.21 9.21 -10.5171 7.05 9.34 -10.624 9.192 17 -9.192
4 16 -3.5 7.42 -12.304 -3.87 8.342 -12.2305 -3.268 8.454 -12.3502 -3.16 7.86 -12.3716
4 16 -3.16 7.86 -12.3716 -3.268 8.454 -12.3502 -2.774 8.784 -12.4484 -2.75 8.4 -12.4532
4 16 -2.31 8.9 -12.5407 -2.75 8.4 -12.4532 -2.774 8.784 -12.4484 -2.444 9.278 -12.514
4 16 -3.73 7.61 -12.2583 -3.85 8.01 -12.2344 -3.87 8.342 -12.2305 -3.63 7.4 -12.2782
4 16 -3.63 7.4 -12.2782 -3.87 8.342 -12.2305 -3.5 7.42 -12.304 -3.57 7.37 -12.2901
4 16 5.3482 9.8618 -11.7614 6.67 9.32 -10.878 6.12 9 -11.2456 5.2422 9.3297 -11.8322
4 16 5.2422 10.394 -11.8322 6.87 9.37 -10.7443 6.67 9.32 -10.878 5.3482 9.8618 -11.7614
4 16 7.28 8.98 -10.4703 7.21 9.21 -10.5171 9.192 17 -9.192 8.81 5.6 -9.4478
4 16 -1.9 9.24 -12.6222 -2.31 8.9 -12.5407 -2.444 9.278 -12.514 -2.328 9.86 -12.5371
4 16 4.975 8.827 -12.0107 5.57 8.66 -11.6131 5.24 8.5 -11.8337 4.975 8.42 -12.0107
4 16 5.2422 9.3297 -11.8322 6.12 9 -11.2456 5.57 8.66 -11.6131 4.975 8.827 -12.0107
4 16 -1.58 15.84 -12.6858 -2.31 15.64 -12.5407 -4.9752 17 -12.0104 0 17 -13
4 16 -1.51 14.83 -12.6997 -.7 14.94 -12.8608 -2.49 12.44 -12.5049 -2.75 12.47 -12.4532
4 16 0 14.96 -13 -2.33 12.34 -12.5367 -2.49 12.44 -12.5049 -.7 14.94 -12.8608
4 16 -2.27 12.18 -12.5486 -2.33 12.34 -12.5367 0 14.96 -13 -.85 9.35 -12.831
4 16 -3.42 14.23 -12.3199 -2.84 14.48 -12.4353 -3.45 12.23 -12.314 -3.99 11.85 -12.2066
4 16 -2.84 14.48 -12.4353 -2.24 14.66 -12.5546 -3.09 12.4 -12.3856 -3.45 12.23 -12.314
4 16 -2.24 14.66 -12.5546 -1.51 14.83 -12.6997 -2.75 12.47 -12.4532 -3.09 12.4 -12.3856
4 16 -.97 9.44 -12.8071 -1.21 9.48 -12.7594 -2.444 10.442 -12.514 -2.851 10.988 -12.4331
4 16 -1.21 9.48 -12.7594 -1.53 9.43 -12.6958 -2.328 9.86 -12.5371 -2.444 10.442 -12.514
3 16 -1.9 9.24 -12.6222 -2.328 9.86 -12.5371 -1.53 9.43 -12.6958
4 16 -.97 9.44 -12.8071 -2.31 11.96 -12.5407 -2.27 12.18 -12.5486 -.85 9.35 -12.831
3 16 -.97 9.44 -12.8071 -2.851 10.988 -12.4331 -2.51 11.53 -12.5009
3 16 -.97 9.44 -12.8071 -2.51 11.53 -12.5009 -2.31 11.96 -12.5407
4 16 -3.6 14.2 -12.2841 -3.42 14.23 -12.3199 -3.99 11.85 -12.2066 -4.41 11.47 -12.1231
3 16 -.82 9.19 -12.8369 -.85 9.35 -12.831 0 14.96 -13
4 16 0 4 -13 -.85 8.93 -12.831 -.82 9.19 -12.8369 0 14.96 -13
4 16 0 4 -13 -1.08 7.63 -12.7852 -.98 8.3 -12.8051 -.85 8.93 -12.831
3 16 -1.58 15.84 -12.6858 0 17 -13 -.79 15.96 -12.8429
3 16 -.79 15.96 -12.8429 0 17 -13 0 16.01 -13
4 16 -3.79 14.32 -12.2464 -4.66 13.94 -12.0734 -4.56 14.26 -12.0932 -3.89 14.54 -12.2265
4 16 -4.41 11.47 -12.1231 -4.975 10.863 -12.0108 -4.975 13.38 -12.0108 -4.66 13.94 -12.0734
4 16 -3.79 14.32 -12.2464 -3.6 14.2 -12.2841 -4.41 11.47 -12.1231 -4.66 13.94 -12.0734
4 16 0 4 -13 -.98 6.16 -12.8051 -1.09 7.01 -12.7833 -1.08 7.63 -12.7852
4 16 0 4 -13 -.53 4.77 -12.8946 -.76 5.43 -12.8489 -.98 6.16 -12.8051
4 16 -7.3912 0 -3.0616 -9.1592 .3046 -3.7936 -7.0098 .3048 -7.0098 -5.6568 0 -5.6568
4 16 -7.0098 .3048 -7.0098 -8.157 1.172 -8.157 -4.414 1.172 -10.658 -3.7938 .3048 -9.1591
4 16 4.5 2.77 -11.7995 4 2.58 -11.8517 4.975 4 -12.0106 4.876 2.96 -11.7721
4 16 -8.93 1.8 -7.9263 -8.432 1.639 -8.4333 -8.157 1.172 -8.157 -10.6576 1.1718 -4.4144
3 16 -10.6576 1.1718 -4.4144 -9.48 2.05 -7.472 -8.93 1.8 -7.9263
4 16 -10.6576 1.1718 -4.4144 -11.6592 2.4691 -4.8296 -10.14 2.469 -7.1025 -9.48 2.05 -7.472
4 16 9.94 3.82 -7.9946 9.38 3.61 -8.7403 9.4111 4 -8.8649 10.04 4 -7.9239
4 16 9.7 3.52 -8.2221 9.35 3.2 -8.6053 9.38 3.61 -8.7403 9.94 3.82 -7.9946
4 16 11.6592 2.4691 -4.8296 10.72 3.55 -6.709 10.8678 4 -6.6853 12.0104 4 -4.9752
4 16 3.59 2.469 -11.9055 2.2 2.469 -12.1818 4.975 4 -12.0106 4 2.58 -11.8517
4 16 1.75 2.66 -12.3188 1.15 2.94 -12.5077 4.975 4 -12.0106 2.2 2.469 -12.1818
4 16 .52 3.49 -12.7698 0 4 -13 4.975 4 -12.0106 1.15 2.94 -12.5077
3 16 -10.6 8.14 -7.0859 -10.64 8.17 -7.0261 -9.52 8.6 -8.702
4 16 -9.52 8.6 -8.702 -9.59 8.05 -8.5972 -10.55 8.04 -7.1608 -10.6 8.14 -7.0859
3 16 -12.0107 4 -4.9751 -10.85 6.82 -6.7119 -10.89 5.88 -6.652
3 16 -12.0107 4 -4.9751 -10.89 5.88 -6.652 -10.9 5.05 -6.6371
3 16 -12.0107 4 -4.9751 -10.9 5.05 -6.6371 -10.8733 4 -6.6769
4 16 -9.73 5.89 -8.3877 -9.84 5.5 -8.2231 -9.95 5.71 -8.0586 -10.09 6.11 -7.8491
4 16 -9.75 5.46 -8.3578 -9.7878 5.41 -8.3012 -9.84 5.5 -8.2231 -9.73 5.89 -8.3877
4 16 -9.59 8.05 -8.5972 -9.65 7.4 -8.5074 -10.44 7.62 -7.3254 -10.55 8.04 -7.1608
4 16 -9.65 7.4 -8.5074 -9.69 6.78 -8.4476 -10.28 6.89 -7.5648 -10.44 7.62 -7.3254
4 16 -9.69 6.78 -8.4476 -9.73 5.89 -8.3877 -10.09 6.11 -7.8491 -10.28 6.89 -7.5648
3 16 11.6592 2.4691 -4.8296 10.48 3.03 -6.84 10.72 3.55 -6.709
4 16 5.16 6.79 -11.8871 5.31 6.82 -11.7869 6.62 5.1 -10.9114 6.57 5.04 -10.9448
4 16 4.975 6.83 -12.0107 5.16 6.79 -11.8871 6.57 5.04 -10.9448 4.975 4 -12.0106
3 16 4.975 4 -12.0106 6.57 5.04 -10.9448 6.45 4.79 -11.025
4 16 6.73 5.09 -10.8379 6.62 5.1 -10.9114 6.18 7.42 -11.2055 6.68 7.9 -10.8713
3 16 6.62 5.1 -10.9114 5.63 6.99 -11.573 6.18 7.42 -11.2055
3 16 6.62 5.1 -10.9114 5.31 6.82 -11.7869 5.63 6.99 -11.573
4 16 8.54 4.93 -9.6282 7.07 4.76 -10.6107 6.9 5 -10.7243 8.62 5.34 -9.5748
4 16 8.42 4.42 -9.7084 7.18 4.42 -10.5371 7.07 4.76 -10.6107 8.54 4.93 -9.6282
4 16 8.21 4 -9.8488 7.2566 4 -10.4859 7.18 4.42 -10.5371 8.42 4.42 -9.7084
4 16 6.29 4.45 -11.1319 6.02 4 -11.3124 4.975 4 -12.0106 6.45 4.79 -11.025
3 16 6.68 7.9 -10.8713 8.71 5.54 -9.5146 6.73 5.09 -10.8379
4 16 8.62 5.34 -9.5748 6.9 5 -10.7243 6.73 5.09 -10.8379 8.71 5.54 -9.5146
4 16 7.09 8.37 -10.5973 8.76 5.59 -9.4812 8.71 5.54 -9.5146 6.68 7.9 -10.8713
4 16 3.0616 0 -7.3912 3.7938 .3048 -9.1591 7.0098 .3048 -7.0098 5.6568 0 -5.6568
4 16 -3.0616 0 -7.3912 -3.7938 .3048 -9.1591 0 .3048 -9.9138 0 0 -8
4 16 -4.414 1.172 -10.658 -4.488 1.401 -10.8344 0 1.4 -11.7259 0 1.172 -11.5353
3 16 11.6592 2.4691 -4.8296 10.0845 2.469 -7.1856 10.48 3.03 -6.84
4 16 7.0098 .3048 -7.0098 8.157 1.172 -8.1569 10.6576 1.1718 -4.4144 9.1592 .3046 -3.7936
4 16 0 .3048 -9.9138 0 1.172 -11.5353 4.414 1.172 -10.6581 3.7938 .3048 -9.1591
3 16 9.05 5.39 -9.2874 8.87 5.56 -9.4077 9.192 17 -9.192
3 16 8.87 5.56 -9.4077 8.81 5.6 -9.4478 9.192 17 -9.192
4 16 8.81 5.6 -9.4478 8.76 5.59 -9.4812 7.09 8.37 -10.5973 7.23 8.59 -10.5037
3 16 8.81 5.6 -9.4478 7.27 8.77 -10.477 7.28 8.98 -10.4703
3 16 8.81 5.6 -9.4478 7.23 8.59 -10.5037 7.27 8.77 -10.477
3 16 9.192 5.19 -9.1928 9.05 5.39 -9.2874 9.192 17 -9.192

5 24 12.0104 17 -4.9752 12.0104 4 -4.9752 13 17 0 9.192 17 -9.192
5 24 9.192 17 -9.192 9.192 4 -9.1923 12.0104 17 -4.9752 4.9752 17 -12.0104
5 24 4.9752 17 -12.0104 4.975 4 -12.0106 9.192 17 -9.192 0 17 -13
5 24 0 17 -13 0 4 -13 4.9752 17 -12.0104 -4.9752 17 -12.0104
5 24 -4.9752 17 -12.0104 -4.975 4 -12.0106 0 17 -13 -9.192 17 -9.192
5 24 -9.192 17 -9.192 -9.1922 4 -9.1922 -4.9752 17 -12.0104 -12.0107 17 -4.9751
5 24 -12.0107 17 -4.9751 -12.0107 4 -4.9751 -9.192 17 -9.192 -13 17 0
5 24 0 0 -8 -3.0616 0 -7.3912 0 .3048 -9.9138 0 0 -5.929
5 24 0 0 -8 0 .3048 -9.9138 -3.0616 0 -7.3912 3.314 0 -8
5 24 0 .3048 -9.9138 -3.7938 .3048 -9.1591 0 1.172 -11.5353 0 0 -8
5 24 0 .3048 -9.9138 0 1.172 -11.5353 -3.7938 .3048 -9.1591 4.106 .305 -9.914
5 24 0 1.172 -11.5353 -4.414 1.172 -10.658 0 2.469 -12.6191 0 .3048 -9.9138
5 24 0 1.172 -11.5353 0 2.469 -12.6191 -4.414 1.172 -10.658 4.778 1.172 -11.535
5 24 0 2.469 -12.6191 -4.83 2.469 -11.6589 0 4 -13 0 1.172 -11.5353
5 24 0 2.469 -12.6191 0 4 -13 -4.83 2.469 -11.6589 5.227 2.469 -12.619
5 24 0 4 -13 -4.975 4 -12.0106 0 5.657 -13 0 2.469 -12.6191
5 24 -3.0616 0 -7.3912 -5.6568 0 -5.6568 -3.7938 .3048 -9.1591 -2.269 0 -5.478
5 24 -3.0616 0 -7.3912 -3.7938 .3048 -9.1591 -5.6568 0 -5.6568 0 0 -8
5 24 -3.7938 .3048 -9.1591 -7.0098 .3048 -7.0098 -4.414 1.172 -10.658 -3.0616 0 -7.3912
5 24 -3.7938 .3048 -9.1591 -4.414 1.172 -10.658 -7.0098 .3048 -7.0098 0 .3048 -9.9138
5 24 -4.414 1.172 -10.658 -8.157 1.172 -8.157 -4.83 2.469 -11.6589 -3.7938 .3048 -9.1591
5 24 -4.414 1.172 -10.658 -4.83 2.469 -11.6589 -8.157 1.172 -8.157 0 1.172 -11.5353
5 24 -4.83 2.469 -11.6589 -8.9231 2.4691 -8.9231 -4.975 4 -12.0106 -4.414 1.172 -10.658
5 24 -4.83 2.469 -11.6589 -4.975 4 -12.0106 -8.9231 2.4691 -8.9231 0 2.469 -12.6191
5 24 -4.975 4 -12.0106 -9.1922 4 -9.1922 -4.975 5.657 -12.01 -4.83 2.469 -11.6589
5 24 -5.6568 0 -5.6568 -7.3912 0 -3.0616 -7.0098 .3048 -7.0098 -4.192 0 -4.192
5 24 -5.6568 0 -5.6568 -7.0098 .3048 -7.0098 -7.3912 0 -3.0616 -3.0616 0 -7.3912
5 24 -7.0098 .3048 -7.0098 -9.1592 .3046 -3.7936 -8.157 1.172 -8.157 -5.6568 0 -5.6568
5 24 -7.0098 .3048 -7.0098 -8.157 1.172 -8.157 -9.1592 .3046 -3.7936 -3.7938 .3048 -9.1591
5 24 -8.157 1.172 -8.157 -10.6576 1.1718 -4.4144 -8.9231 2.4691 -8.9231 -7.0098 .3048 -7.0098
5 24 -8.157 1.172 -8.157 -8.9231 2.4691 -8.9231 -10.6576 1.1718 -4.4144 -4.414 1.172 -10.658
5 24 -8.9231 2.4691 -8.9231 -11.6592 2.4691 -4.8296 -9.1922 4 -9.1922 -8.157 1.172 -8.157
5 24 -8.9231 2.4691 -8.9231 -9.1922 4 -9.1922 -11.6592 2.4691 -4.8296 -4.83 2.469 -11.6589
5 24 -9.1922 4 -9.1922 -12.0107 4 -4.9751 -9.192 5.657 -9.192 -8.9231 2.4691 -8.9231
5 24 -7.3912 0 -3.0616 -9.1592 .3046 -3.7936 -8 0 0 -5.6568 0 -5.6568
5 24 -9.1592 .3046 -3.7936 -10.6576 1.1718 -4.4144 -9.9136 .3046 0 -7.0098 .3048 -7.0098
5 24 -10.6576 1.1718 -4.4144 -11.6592 2.4691 -4.8296 -11.5352 1.1718 0 -8.157 1.172 -8.157
5 24 -11.6592 2.4691 -4.8296 -12.0107 4 -4.9751 -12.6192 2.4691 0 -8.9231 2.4691 -8.9231
5 24 7.3912 0 -3.0616 5.6568 0 -5.6568 9.1592 .3046 -3.7936 5.478 0 -2.269
5 24 7.3912 0 -3.0616 9.1592 .3046 -3.7936 5.6568 0 -5.6568 8 0 0
5 24 9.1592 .3046 -3.7936 7.0098 .3048 -7.0098 10.6576 1.1718 -4.4144 7.3912 0 -3.0616
5 24 9.1592 .3046 -3.7936 10.6576 1.1718 -4.4144 7.0098 .3048 -7.0098 9.9136 .3046 0
5 24 10.6576 1.1718 -4.4144 8.157 1.172 -8.1569 11.6592 2.4691 -4.8296 9.1592 .3046 -3.7936
5 24 10.6576 1.1718 -4.4144 11.6592 2.4691 -4.8296 8.157 1.172 -8.1569 11.5352 1.1718 0
5 24 11.6592 2.4691 -4.8296 8.9231 2.4691 -8.9231 12.0104 4 -4.9752 10.6576 1.1718 -4.4144
5 24 11.6592 2.4691 -4.8296 12.0104 4 -4.9752 8.9231 2.4691 -8.9231 12.6192 2.4691 0
5 24 12.0104 4 -4.9752 9.192 4 -9.1923 12.01 5.657 -4.975 11.6592 2.4691 -4.8296
5 24 5.6568 0 -5.6568 3.0616 0 -7.3912 7.0098 .3048 -7.0098 4.192 0 -4.192
5 24 5.6568 0 -5.6568 7.0098 .3048 -7.0098 3.0616 0 -7.3912 7.3912 0 -3.0616
5 24 7.0098 .3048 -7.0098 3.7938 .3048 -9.1591 8.157 1.172 -8.1569 5.6568 0 -5.6568
5 24 7.0098 .3048 -7.0098 8.157 1.172 -8.1569 3.7938 .3048 -9.1591 9.1592 .3046 -3.7936
5 24 8.157 1.172 -8.1569 4.414 1.172 -10.6581 8.9231 2.4691 -8.9231 7.0098 .3048 -7.0098
5 24 8.157 1.172 -8.1569 8.9231 2.4691 -8.9231 4.414 1.172 -10.6581 10.6576 1.1718 -4.4144
5 24 8.9231 2.4691 -8.9231 4.83 2.469 -11.6589 9.192 4 -9.1923 8.157 1.172 -8.1569
5 24 8.9231 2.4691 -8.9231 9.192 4 -9.1923 4.83 2.469 -11.6589 11.6592 2.4691 -4.8296
5 24 9.192 4 -9.1923 4.975 4 -12.0106 9.192 5.657 -9.192 8.9231 2.4691 -8.9231
5 24 3.0616 0 -7.3912 0 0 -8 3.7938 .3048 -9.1591 2.269 0 -5.478
5 24 3.0616 0 -7.3912 3.7938 .3048 -9.1591 0 0 -8 5.6568 0 -5.6568
5 24 3.7938 .3048 -9.1591 0 .3048 -9.9138 4.414 1.172 -10.6581 3.0616 0 -7.3912
5 24 3.7938 .3048 -9.1591 4.414 1.172 -10.6581 0 .3048 -9.9138 7.0098 .3048 -7.0098
5 24 4.414 1.172 -10.6581 0 1.172 -11.5353 4.83 2.469 -11.6589 3.7938 .3048 -9.1591
5 24 4.414 1.172 -10.6581 4.83 2.469 -11.6589 0 1.172 -11.5353 8.157 1.172 -8.1569
5 24 4.83 2.469 -11.6589 0 2.469 -12.6191 4.975 4 -12.0106 4.414 1.172 -10.6581
5 24 4.83 2.469 -11.6589 4.975 4 -12.0106 0 2.469 -12.6191 8.9231 2.4691 -8.9231
5 24 4.975 4 -12.0106 0 4 -13 4.975 5.657 -12.01 4.83 2.469 -11.6589